wp_id,x,y,z,yaw,velocity,change_flag
0,10995.6743,11352.3222,60.9090,-2.7019,0,0
1,10994.7715,11351.8901,60.8850,-2.7017,6.7930,0
2,10993.8655,11351.4568,60.8782,-2.6970,9.6250,0
3,10992.9600,11351.0180,60.8762,-2.6912,11.6888,0
4,10992.0248,11350.5603,60.8744,-2.6860,13.3551,0
5,10991.1116,11350.1056,60.8621,-2.6807,14.8826,0
6,10990.1862,11349.6388,60.8514,-2.6768,16.1922,0
7,10989.2716,11349.1749,60.8622,-2.6747,17.3678,0
8,10988.2913,11348.6793,60.8532,-2.6731,18.5592,0
9,10987.3443,11348.1991,60.8449,-2.6737,19.6763,0
10,10986.4455,11347.7464,60.8326,-2.6744,20.6089,0
11,10985.5058,11347.2707,60.8248,-2.6749,21.5379,0
12,10984.5216,11346.7812,60.8123,-2.6746,22.4312,0
13,10983.6150,11346.3311,60.8146,-2.6752,23.1355,0
14,10982.6787,11345.8655,60.8155,-2.6746,23.8532,0
15,10981.7130,11345.3860,60.8093,-2.6734,24.6394,0
16,10980.7208,11344.8889,60.8018,-2.6736,25.3667,0
17,10979.7011,11344.3777,60.7917,-2.6725,25.9879,0
18,10978.7874,11343.9194,60.7803,-2.6727,26.5855,0
19,10977.8528,11343.4568,60.7711,-2.6728,27.0699,0
20,10976.8993,11342.9881,60.7719,-2.6722,27.6103,0
21,10975.9277,11342.5109,60.7712,-2.6703,28.0875,0
22,10974.9430,11342.0184,60.7617,-2.6695,28.5913,0
23,10973.9419,11341.5188,60.7467,-2.6688,29.0220,0
24,10972.9263,11341.0092,60.7337,-2.6699,29.4743,0
25,10971.8959,11340.4949,60.7285,-2.6697,29.7351,0
26,10970.8482,11339.9826,60.7287,-2.6705,30.2023,0
27,10969.9407,11339.5382,60.7216,-2.6722,30.5144,0
28,10969.0247,11339.0896,60.7076,-2.6734,30.8051,0
29,10968.0989,11338.6396,60.6951,-2.6737,31.0161,0
30,10967.1653,11338.1868,60.6894,-2.6750,31.2056,0
31,10966.2248,11337.7301,60.6861,-2.6773,31.5136,0
32,10965.2756,11337.2730,60.6795,-2.6783,31.7251,0
33,10964.3184,11336.8158,60.6758,-2.6788,31.9172,0
34,10963.3533,11336.3590,60.6771,-2.6801,32.1514,0
35,10962.3817,11335.9003,60.6761,-2.6811,32.3425,0
36,10961.4036,11335.4391,60.6691,-2.6814,32.5232,0
37,10960.4202,11334.9751,60.6640,-2.6804,32.6797,0
38,10959.4314,11334.5079,60.6635,-2.6787,32.9613,0
39,10958.4391,11334.0362,60.6654,-2.6771,33.0674,0
40,10957.4436,11333.5574,60.6674,-2.6768,33.2816,0
41,10956.4433,11333.0751,60.6686,-2.6765,33.4149,0
42,10955.4367,11332.5924,60.6629,-2.6770,33.5275,0
43,10954.4240,11332.1079,60.6475,-2.6782,33.7286,0
44,10953.4047,11331.6235,60.6371,-2.6789,33.9654,0
45,10952.3793,11331.1398,60.6377,-2.6785,34.0808,0
46,10951.3490,11330.6517,60.6437,-2.6792,34.3169,0
47,10950.3134,11330.1606,60.6402,-2.6797,34.5180,0
48,10949.2711,11329.6677,60.6260,-2.6794,34.7109,0
49,10948.2231,11329.1717,60.6099,-2.6782,34.8897,0
50,10947.1703,11328.6721,60.5947,-2.6765,35.0555,0
51,10946.1138,11328.1667,60.5780,-2.6758,35.2267,0
52,10945.0535,11327.6574,60.5714,-2.6766,35.3908,0
53,10943.9878,11327.1465,60.5763,-2.6786,35.5627,0
54,10942.9151,11326.6375,60.5838,-2.6807,35.7245,0
55,10941.8336,11326.1307,60.5774,-2.6811,35.9369,0
56,10940.9266,11325.7087,60.5635,-2.6800,36.1093,0
57,10940.0175,11325.2829,60.5503,-2.6791,36.2058,0
58,10939.1060,11324.8524,60.5367,-2.6784,36.3616,0
59,10938.1920,11324.4192,60.5218,-2.6777,36.4650,0
60,10937.2767,11323.9812,60.5083,-2.6775,36.5905,0
61,10936.3580,11323.5429,60.4971,-2.6777,36.7296,0
62,10935.4372,11323.1046,60.4921,-2.6777,36.7560,0
63,10934.5141,11322.6658,60.4931,-2.6770,36.8639,0
64,10933.5896,11322.2266,60.4983,-2.6762,36.8518,0
65,10932.6636,11321.7862,60.5046,-2.6759,36.9423,0
66,10931.7372,11321.3418,60.5066,-2.6766,37.0298,0
67,10930.8078,11320.8976,60.5016,-2.6772,37.1098,0
68,10929.8752,11320.4527,60.4928,-2.6782,37.2626,0
69,10928.9388,11320.0098,60.4826,-2.6786,37.2776,0
70,10927.9996,11319.5653,60.4686,-2.6778,37.4301,0
71,10927.0582,11319.1200,60.4522,-2.6772,37.5179,0
72,10926.1156,11318.6718,60.4456,-2.6773,37.6040,0
73,10925.1715,11318.2222,60.4505,-2.6778,37.6764,0
74,10924.2254,11317.7712,60.4578,-2.6780,37.7986,0
75,10923.2766,11317.3209,60.4550,-2.6779,37.8086,0
76,10922.3249,11316.8702,60.4386,-2.6766,37.9183,0
77,10921.3718,11316.4174,60.4231,-2.6750,38.0157,0
78,10920.4179,11315.9611,60.4184,-2.6738,38.1174,0
79,10919.4640,11315.5004,60.4249,-2.6743,38.1879,0
80,10918.5081,11315.0372,60.4273,-2.6742,38.2934,0
81,10917.5493,11314.5744,60.4160,-2.6741,38.3829,0
82,10916.5875,11314.1111,60.3976,-2.6737,38.4751,0
83,10915.6232,11313.6469,60.3846,-2.6735,38.5675,0
84,10914.6570,11313.1822,60.3835,-2.6732,38.6291,0
85,10913.6891,11312.7157,60.3859,-2.6736,38.7204,0
86,10912.7193,11312.2486,60.3852,-2.6738,38.7389,0
87,10911.7476,11311.7796,60.3862,-2.6743,38.8602,0
88,10910.7736,11311.3101,60.3914,-2.6747,38.9604,0
89,10909.7978,11310.8400,60.3973,-2.6751,39.0036,0
90,10908.8195,11310.3690,60.3933,-2.6753,39.1315,0
91,10907.8389,11309.8973,60.3800,-2.6759,39.1793,0
92,10906.8564,11309.4262,60.3731,-2.6763,39.2923,0
93,10905.8723,11308.9557,60.3704,-2.6763,39.3158,0
94,10904.8874,11308.4847,60.3705,-2.6761,39.3313,0
95,10903.9023,11308.0138,60.3742,-2.6761,39.2998,0
96,10902.9173,11307.5416,60.3829,-2.6771,39.3111,0
97,10901.9315,11307.0691,60.3934,-2.6783,39.3944,0
98,10900.9441,11306.5978,60.4027,-2.6787,39.3992,0
99,10899.9551,11306.1285,60.4029,-2.6776,39.4190,0
100,10898.9666,11305.6568,60.3917,-2.6773,39.4341,0
101,10897.9775,11305.1842,60.3738,-2.6775,39.4468,0
102,10896.9887,11304.7104,60.3665,-2.6777,39.4505,0
103,10895.9989,11304.2371,60.3687,-2.6774,39.4695,0
104,10895.0084,11303.7643,60.3698,-2.6764,39.5194,0
105,10894.0184,11303.2906,60.3658,-2.6758,39.4855,0
106,10893.0299,11302.8139,60.3580,-2.6762,39.5270,0
107,10892.0404,11302.3383,60.3449,-2.6766,39.5413,0
108,10891.0507,11301.8627,60.3350,-2.6766,39.5272,0
109,10890.0601,11301.3874,60.3280,-2.6762,39.5733,0
110,10889.0695,11300.9118,60.3176,-2.6762,39.5472,0
111,10888.0787,11300.4353,60.3042,-2.6772,39.5391,0
112,10887.0874,11299.9599,60.2912,-2.6773,39.5555,0
113,10886.0951,11299.4868,60.2808,-2.6773,39.5631,0
114,10885.1026,11299.0137,60.2692,-2.6776,39.5584,0
115,10884.1107,11298.5404,60.2647,-2.6768,39.5656,0
116,10883.1185,11298.0670,60.2630,-2.6759,39.5400,0
117,10882.1274,11297.5911,60.2567,-2.6760,39.5698,0
118,10881.1375,11297.1130,60.2443,-2.6772,39.5678,0
119,10880.1467,11296.6362,60.2270,-2.6777,39.5626,0
120,10879.1547,11296.1611,60.2083,-2.6783,39.5963,0
121,10878.1622,11295.6869,60.1950,-2.6785,39.5599,0
122,10877.1687,11295.2153,60.1934,-2.6782,39.5492,0
123,10876.1753,11294.7438,60.1944,-2.6777,39.5631,0
124,10875.1823,11294.2713,60.1853,-2.6776,39.5569,0
125,10874.1906,11293.7967,60.1726,-2.6781,39.5568,0
126,10873.1989,11293.3222,60.1567,-2.6776,39.5491,0
127,10872.2074,11292.8464,60.1373,-2.6768,39.5446,0
128,10871.2162,11292.3712,60.1177,-2.6760,39.5135,0
129,10870.2272,11291.8921,60.1002,-2.6763,39.5483,0
130,10869.2378,11291.4135,60.0837,-2.6766,39.5721,0
131,10868.2495,11290.9351,60.0767,-2.6775,39.5103,0
132,10867.2602,11290.4591,60.0693,-2.6779,39.5257,0
133,10866.2701,11289.9855,60.0532,-2.6774,39.4895,0
134,10865.2812,11289.5135,60.0307,-2.6772,39.3912,0
135,10864.2949,11289.0404,60.0066,-2.6771,39.3536,0
136,10863.3093,11288.5684,59.9778,-2.6768,39.3125,0
137,10862.3266,11288.0953,59.9554,-2.6767,39.2201,0
138,10861.3445,11287.6242,59.9428,-2.6763,39.1779,0
139,10860.3649,11287.1529,59.9298,-2.6759,39.0519,0
140,10859.3866,11286.6818,59.9137,-2.6753,39.0714,0
141,10858.4106,11286.2110,59.8959,-2.6757,38.9483,0
142,10857.4361,11285.7416,59.8799,-2.6763,38.9086,0
143,10856.4631,11285.2739,59.8591,-2.6762,38.8183,0
144,10855.4913,11284.8081,59.8399,-2.6758,38.7427,0
145,10854.5228,11284.3426,59.8279,-2.6749,38.5462,0
146,10853.5565,11283.8765,59.8197,-2.6751,38.5443,0
147,10852.5935,11283.4093,59.8142,-2.6759,38.4380,0
148,10851.6324,11282.9442,59.8104,-2.6767,38.4044,0
149,10850.6723,11282.4816,59.7975,-2.6763,38.3182,0
150,10849.7141,11282.0196,59.7765,-2.6763,38.2461,0
151,10848.7574,11281.5597,59.7620,-2.6763,38.1528,0
152,10847.8029,11281.1011,59.7534,-2.6761,38.0435,0
153,10846.8507,11280.6431,59.7430,-2.6761,37.9875,0
154,10845.9016,11280.1852,59.7275,-2.6760,37.8434,0
155,10844.9554,11279.7279,59.7165,-2.6764,37.7397,0
156,10844.0124,11279.2713,59.7143,-2.6769,37.6367,0
157,10843.0722,11278.8156,59.7160,-2.6775,37.5659,0
158,10842.1328,11278.3636,59.7171,-2.6778,37.4507,0
159,10841.1959,11277.9127,59.7139,-2.6783,37.3504,0
160,10840.2610,11277.4640,59.7022,-2.6789,37.2955,0
161,10839.3279,11277.0171,59.6801,-2.6796,37.1890,0
162,10838.3977,11276.5731,59.6643,-2.6803,37.0035,0
163,10837.4709,11276.1322,59.6540,-2.6813,36.8416,0
164,10836.5495,11275.6951,59.6509,-2.6820,36.5974,0
165,10835.6322,11275.2620,59.6479,-2.6820,36.4215,0
166,10834.7198,11274.8324,59.6438,-2.6819,36.1764,0
167,10833.8136,11274.4034,59.6401,-2.6820,35.9847,0
168,10832.7337,11273.8928,59.6255,-2.6822,35.6776,0
169,10831.6639,11273.3852,59.5956,-2.6826,35.3817,0
170,10830.6040,11272.8816,59.5732,-2.6828,35.0421,0
171,10829.5533,11272.3833,59.5746,-2.6831,34.7271,0
172,10828.5115,11271.8909,59.5863,-2.6838,34.4259,0
173,10827.4778,11271.4042,59.5806,-2.6846,34.1623,0
174,10826.4523,11270.9237,59.5571,-2.6848,33.8304,0
175,10825.4352,11270.4489,59.5327,-2.6847,33.5103,0
176,10824.4281,11269.9785,59.5198,-2.6849,33.1688,0
177,10823.4315,11269.5128,59.5144,-2.6850,32.8420,0
178,10822.4479,11269.0504,59.5005,-2.6851,32.4388,0
179,10821.4750,11268.5954,59.4788,-2.6847,32.0740,0
180,10820.5149,11268.1450,59.4646,-2.6847,31.6410,0
181,10819.5673,11267.7018,59.4647,-2.6842,31.1945,0
182,10818.6322,11267.2637,59.4635,-2.6844,30.8190,0
183,10817.7104,11266.8317,59.4525,-2.6849,30.3527,0
184,10816.8016,11266.4054,59.4419,-2.6853,29.8989,0
185,10815.7557,11265.9194,59.4290,-2.6852,29.4199,0
186,10814.7295,11265.4386,59.4246,-2.6858,28.9590,0
187,10813.7211,11264.9673,59.4137,-2.6867,28.3858,0
188,10812.7299,11264.5081,59.3934,-2.6850,27.9287,0
189,10811.7575,11264.0558,59.3694,-2.6843,27.3647,0
190,10810.8026,11263.6052,59.3586,-2.6855,26.9863,0
191,10809.8624,11263.1614,59.3579,-2.6864,26.5791,0
192,10808.9318,11262.7309,59.3546,-2.6862,26.2383,0
193,10808.0168,11262.3027,59.3416,-2.6863,25.8701,0
194,10806.9888,11261.8207,59.3306,-2.6859,25.3997,0
195,10805.9788,11261.3487,59.3187,-2.6857,24.9184,0
196,10804.9866,11260.8844,59.3029,-2.6855,24.5289,0
197,10804.0106,11260.4276,59.2910,-2.6845,24.0813,0
198,10803.0478,11259.9799,59.2910,-2.6831,23.7392,0
199,10802.1028,11259.5324,59.2893,-2.6831,23.3869,0
200,10801.1784,11259.0922,59.2730,-2.6829,22.8067,0
201,10800.2741,11258.6626,59.2593,-2.6825,22.3172,0
202,10799.2803,11258.1932,59.2382,-2.6813,21.7191,0
203,10798.3134,11257.7364,59.2340,-2.6808,21.1283,0
204,10797.3745,11257.2902,59.2266,-2.6800,20.5022,0
205,10796.4659,11256.8549,59.2141,-2.6775,19.8815,0
206,10795.4899,11256.3879,59.2036,-2.6731,19.1499,0
207,10794.5562,11255.9322,59.1963,-2.6677,18.3566,0
208,10793.5786,11255.4448,59.1818,-2.6570,17.5232,0
209,10792.6486,11254.9761,59.1689,-2.6379,16.6504,0
210,10791.7012,11254.4624,59.1757,-2.6080,15.7672,0
211,10790.8125,11253.9420,59.1549,-2.5672,15.1588,0
212,10789.9043,11253.3570,59.1396,-2.5171,14.7376,0
213,10789.0469,11252.7380,59.1309,-2.4586,14.5627,0
214,10788.2420,11252.0717,59.1095,-2.3898,14.2716,0
215,10787.5003,11251.3615,59.1040,-2.3158,14.0035,0
216,10786.8188,11250.6081,59.0769,-2.2380,13.8654,0
217,10786.2152,11249.8019,59.0638,-2.1559,13.8709,0
218,10785.6666,11248.9351,59.0507,-2.0635,14.2225,0
219,10785.1982,11248.0091,59.0389,-1.9717,14.2450,0
220,10784.8139,11247.0388,59.0277,-1.8765,14.3009,0
221,10784.5213,11246.0278,59.0094,-1.7815,14.4697,0
222,10784.3200,11244.9831,59.0047,-1.6883,14.6226,0
223,10784.2178,11243.9137,58.9760,-1.6021,14.7766,0
224,10784.2093,11242.9110,58.9594,-1.5237,14.9438,0
225,10784.2743,11241.8959,58.9336,-1.4484,15.1319,0
226,10784.4100,11240.8805,58.9194,-1.3742,15.2181,0
227,10784.6323,11239.8709,58.8949,-1.3089,15.4056,0
228,10784.9166,11238.8641,58.8897,-1.2502,15.5717,0
229,10785.2581,11237.8710,58.8953,-1.2029,15.6406,0
230,10785.6466,11236.8827,58.8547,-1.1641,15.8490,0
231,10786.0751,11235.8926,58.8323,-1.1309,16.1371,0
232,10786.5030,11234.9874,58.8186,-1.1083,16.3410,0
233,10786.9518,11234.0852,58.7885,-1.0896,16.4059,0
234,10787.4166,11233.1828,58.7595,-1.0737,16.5542,0
235,10787.8953,11232.2782,58.7186,-1.0587,16.7159,0
236,10788.3899,11231.3765,58.6884,-1.0460,16.7211,0
237,10788.8997,11230.4740,58.6650,-1.0364,16.9347,0
238,10789.4215,11229.5731,58.6309,-1.0295,16.9695,0
239,10789.9425,11228.6681,58.6155,-1.0222,17.0449,0
240,10790.4749,11227.7631,58.5709,-1.0179,17.1512,0
241,10791.0160,11226.8530,58.5438,-1.0151,17.3344,0
242,10791.5619,11225.9342,58.5319,-1.0132,17.4876,0
243,10792.1192,11225.0110,58.5274,-1.0139,17.6756,0
244,10792.6733,11224.0721,58.5064,-1.0135,17.8738,0
245,10793.2394,11223.1286,58.4999,-1.0144,18.0642,0
246,10793.7535,11222.2556,58.4901,-1.0152,18.1822,0
247,10794.2779,11221.3774,58.4994,-1.0167,18.4978,0
248,10794.8048,11220.4865,58.4938,-1.0177,18.7889,0
249,10795.3330,11219.5850,58.4774,-1.0184,18.8540,0
250,10795.8673,11218.6738,58.4581,-1.0195,19.0405,0
251,10796.4092,11217.7587,58.4265,-1.0208,19.2189,0
252,10796.9465,11216.8420,58.4254,-1.0212,19.1539,0
253,10797.4766,11215.9286,58.4213,-1.0216,19.0055,0
254,10798.0104,11215.0263,58.4123,-1.0230,18.8554,0
255,10798.5326,11214.1280,58.4208,-1.0225,18.7156,0
256,10799.0486,11213.2361,58.4135,-1.0224,18.5476,0
257,10799.5635,11212.3536,58.3997,-1.0228,18.3728,0
258,10800.0725,11211.4803,58.3941,-1.0222,18.2546,0
259,10800.5738,11210.6131,58.3815,-1.0210,18.0727,0
260,10801.1245,11209.6706,58.3734,-1.0203,17.8936,0
261,10801.6676,11208.7331,58.3608,-1.0195,17.7764,0
262,10802.2097,11207.8065,58.3582,-1.0195,17.6162,0
263,10802.7479,11206.8921,58.3453,-1.0180,17.4243,0
264,10803.2774,11205.9840,58.3277,-1.0169,17.2652,0
265,10803.8044,11205.0942,58.3139,-1.0163,16.8707,0
266,10804.3150,11204.2297,58.3069,-1.0151,16.2606,0
267,10804.8459,11203.3272,58.2980,-1.0129,15.5277,0
268,10805.3590,11202.4681,58.2854,-1.0116,14.9481,0
269,10805.8946,11201.5686,58.2720,-1.0094,14.4283,0
270,10806.4082,11200.7047,58.2792,-1.0065,13.8129,0
271,10806.9459,11199.8166,58.2567,-1.0020,13.3756,0
272,10807.4733,11198.9550,58.2544,-0.9920,13.0496,0
273,10808.0346,11198.0613,58.2450,-0.9636,12.6209,0
274,10808.6139,11197.2171,58.2461,-0.9108,12.2811,0
275,10809.2710,11196.3805,58.2260,-0.8298,11.9930,0
276,10809.9802,11195.6282,58.2375,-0.7290,11.5898,0
277,10810.7870,11194.9471,58.2243,-0.6084,11.0954,0
278,10811.6452,11194.3915,58.2182,-0.4908,10.7201,0
279,10812.5865,11193.9346,58.2233,-0.3768,10.3442,0
280,10813.5445,11193.5894,58.2250,-0.2711,10.0189,0
281,10814.5619,11193.3522,58.2314,-0.1637,9.5884,0
282,10815.5544,11193.2301,58.2355,-0.0653,9.1576,0
283,10816.5688,11193.2097,58.2316,0.0297,8.7787,0
284,10817.5976,11193.2754,58.2443,0.1201,8.5603,0
285,10818.6069,11193.4335,58.2444,0.1970,8.4899,0
286,10819.6135,11193.6701,58.2631,0.2649,8.1636,0
287,10820.5754,11193.9534,58.2713,0.3160,7.8073,0
288,10821.5547,11194.2878,58.2948,0.3536,7.5207,0
289,10822.5235,11194.6404,58.2749,0.3702,8.4268,0
290,10823.4862,11195.0151,58.2919,0.3853,8.9894,0
291,10824.4442,11195.3907,58.3038,0.4014,9.2277,0
292,10825.3719,11195.7749,58.3043,0.4147,9.6037,0
293,10826.3293,11196.1930,58.3306,0.4260,10.1081,0
294,10827.2854,11196.6151,58.3264,0.4320,10.6910,0
295,10828.2362,11197.0436,58.3405,0.4383,11.2849,0
296,10829.1726,11197.4656,58.3726,0.4450,11.8004,0
297,10830.0832,11197.8927,58.3903,0.4498,12.3036,0
298,10831.0293,11198.3376,58.4040,0.4539,12.8068,0
299,10831.9457,11198.7719,58.4092,0.4563,13.3476,0
300,10832.8976,11199.2245,58.4227,0.4592,13.8393,0
301,10833.8090,11199.6673,58.4385,0.4606,14.2558,0
302,10834.7505,11200.1173,58.4373,0.4629,14.7356,0
303,10835.7226,11200.5797,58.4422,0.4636,15.2320,0
304,10836.6404,11201.0313,58.4465,0.4644,15.6373,0
305,10837.5864,11201.4895,58.4597,0.4674,16.0437,0
306,10838.5567,11201.9559,58.4648,0.4691,16.4632,0
307,10839.4640,11202.4053,58.4814,0.4722,16.9721,0
308,10840.3988,11202.8691,58.4891,0.4760,17.4718,0
309,10841.3642,11203.3481,58.5010,0.4764,17.9849,0
310,10842.2623,11203.8003,58.5154,0.4745,18.4344,0
311,10843.1837,11204.2561,58.5214,0.4741,18.8246,0
312,10844.1309,11204.7156,58.5443,0.4750,19.3118,0
313,10845.0966,11205.1966,58.5495,0.4778,19.8437,0
314,10846.0902,11205.6902,58.5455,0.4808,20.4343,0
315,10847.0101,11206.1530,58.5516,0.4817,21.0099,0
316,10847.9565,11206.6307,58.5637,0.4824,21.6769,0
317,10848.9289,11207.1248,58.5804,0.4844,22.2788,0
318,10849.9336,11207.6299,58.5763,0.4841,22.9654,0
319,10850.8500,11208.0972,58.5803,0.4801,23.5748,0
320,10851.7879,11208.5716,58.6098,0.4799,24.0559,0
321,10852.7523,11209.0448,58.6296,0.4808,24.5532,0
322,10853.7303,11209.5366,58.6241,0.4790,25.0283,0
323,10854.7266,11210.0398,58.6323,0.4787,25.5200,0
324,10855.7488,11210.5426,58.6543,0.4780,26.0059,0
325,10856.6559,11210.9958,58.6814,0.4743,26.4557,0
326,10857.5830,11211.4549,58.6924,0.4734,27.0134,0
327,10858.5309,11211.9171,58.6893,0.4726,27.4652,0
328,10859.4942,11212.3891,58.6978,0.4719,27.9913,0
329,10860.4732,11212.8709,58.7196,0.4732,28.4971,0
330,10861.4685,11213.3645,58.7442,0.4739,28.9683,0
331,10862.4808,11213.8678,58.7595,0.4736,29.4267,0
332,10863.5108,11214.3808,58.7684,0.4723,29.9860,0
333,10864.4081,11214.8243,58.7763,0.4714,30.4154,0
334,10865.3175,11215.2729,58.7891,0.4690,30.7530,0
335,10866.2411,11215.7233,58.8038,0.4672,31.1572,0
336,10867.1768,11216.1772,58.8204,0.4659,31.5322,0
337,10868.1248,11216.6372,58.8323,0.4650,31.9955,0
338,10869.0854,11217.1002,58.8459,0.4644,32.3014,0
339,10870.0564,11217.5698,58.8656,0.4638,32.6782,0
340,10871.0387,11218.0460,58.8767,0.4648,33.0978,0
341,10872.0321,11218.5277,58.8863,0.4657,33.4331,0
342,10873.0348,11219.0150,58.9094,0.4646,33.7006,0
343,10874.0470,11219.5090,58.9403,0.4626,34.1124,0
344,10875.0727,11220.0009,58.9615,0.4622,34.4276,0
345,10876.1097,11220.4981,58.9674,0.4615,34.7669,0
346,10877.1576,11220.9974,58.9703,0.4616,35.0637,0
347,10878.2121,11221.5040,58.9742,0.4625,35.3549,0
348,10879.2766,11222.0115,58.9724,0.4659,35.5976,0
349,10880.3444,11222.5300,58.9819,0.4664,35.8274,0
350,10881.4171,11223.0565,59.0060,0.4668,36.1441,0
351,10882.3165,11223.4975,59.0230,0.4676,36.2772,0
352,10883.2210,11223.9413,59.0419,0.4681,36.4895,0
353,10884.1303,11224.3868,59.0605,0.4684,36.6602,0
354,10885.0450,11224.8361,59.0786,0.4690,36.9589,0
355,10885.9667,11225.2869,59.0915,0.4703,37.2033,0
356,10886.8947,11225.7420,59.1041,0.4712,37.4563,0
357,10887.8279,11226.2032,59.1185,0.4719,37.7188,0
358,10888.7675,11226.6703,59.1266,0.4720,38.0508,0
359,10889.7152,11227.1380,59.1295,0.4719,38.2852,0
360,10890.6681,11227.6118,59.1378,0.4709,38.4895,0
361,10891.6294,11228.0856,59.1546,0.4710,38.8250,0
362,10892.5971,11228.5615,59.1809,0.4713,39.0900,0
363,10893.5709,11229.0409,59.2067,0.4718,39.3651,0
364,10894.5511,11229.5256,59.2290,0.4726,39.6186,0
365,10895.5374,11230.0159,59.2409,0.4735,39.9326,0
366,10896.5301,11230.5123,59.2387,0.4743,40.2459,0
367,10897.5292,11231.0124,59.2318,0.4747,40.4558,0
368,10898.5349,11231.5164,59.2316,0.4740,40.7455,0
369,10899.5480,11232.0223,59.2357,0.4724,40.9889,0
370,10900.5688,11232.5277,59.2481,0.4714,41.1956,0
371,10901.5974,11233.0334,59.2652,0.4702,41.5177,0
372,10902.6321,11233.5410,59.2789,0.4680,41.6828,0
373,10903.6734,11234.0487,59.2900,0.4663,41.8973,0
374,10904.7206,11234.5577,59.2983,0.4654,42.1156,0
375,10905.7731,11235.0672,59.3057,0.4663,42.3103,0
376,10906.8304,11235.5787,59.3159,0.4671,42.4955,0
377,10907.8904,11236.0952,59.3307,0.4669,42.6118,0
378,10908.9555,11236.6143,59.3464,0.4663,42.8379,0
379,10910.0269,11237.1341,59.3510,0.4652,43.0900,0
380,10911.1043,11237.6549,59.3417,0.4649,43.2973,0
381,10912.1864,11238.1768,59.3328,0.4645,43.4235,0
382,10913.2733,11238.7011,59.3319,0.4640,43.5902,0
383,10914.3630,11239.2285,59.3518,0.4630,43.7477,0
384,10915.4583,11239.7562,59.3796,0.4626,43.9990,0
385,10916.5581,11240.2856,59.3901,0.4615,44.1229,0
386,10917.6627,11240.8166,59.3877,0.4601,44.2900,0
387,10918.7723,11241.3474,59.3919,0.4591,44.4410,0
